"Latest: Time (s)","Latest: Temperature (°C)"
0.0,47.3
0.5,46.3
1.0,45.6
1.5,45.1
2.0,44.8
2.5,44.5
3.0,44.3
3.5,44.1
4.0,44.0
4.5,43.9
5.0,43.8
5.5,43.7
6.0,43.6
6.5,43.5
7.0,43.4
7.5,43.3
8.0,43.2
8.5,43.1
9.0,43.0
9.5,42.9
10.0,42.8
10.5,42.8
11.0,42.7
11.5,42.6
12.0,42.6
12.5,42.5
13.0,42.4
13.5,42.3
14.0,42.3
14.5,42.2
15.0,42.1
15.5,42.1
16.0,42.0
16.5,41.9
17.0,41.9
17.5,41.8
18.0,41.7
18.5,41.7
19.0,41.6
19.5,41.6
20.0,41.5
20.5,41.4
21.0,41.4
21.5,41.3
22.0,41.3
22.5,41.2
23.0,41.1
23.5,41.1
24.0,41.1
24.5,41.0
25.0,41.0
25.5,40.9
26.0,40.9
26.5,40.8
27.0,40.8
27.5,40.7
28.0,40.7
28.5,40.6
29.0,40.6
29.5,40.6
30.0,40.5
30.5,40.5
31.0,40.4
31.5,40.2
32.0,40.1
32.5,40.0
33.0,39.9
33.5,39.9
34.0,39.8
34.5,39.8
35.0,39.7
35.5,39.7
36.0,39.6
36.5,39.6
37.0,39.6
37.5,39.6
38.0,39.5
38.5,39.5
39.0,39.5
39.5,39.5
40.0,39.5
40.5,39.5
41.0,39.4
41.5,39.4
42.0,39.4
42.5,39.4
43.0,39.3
43.5,39.3
44.0,39.3
44.5,39.3
45.0,39.2
45.5,39.2
46.0,39.2
46.5,39.2
47.0,39.1
47.5,39.1
48.0,39.1
48.5,39.1
49.0,39.1
49.5,39.1
50.0,39.1
50.5,39.1
51.0,39.1
51.5,39.0
52.0,39.0
52.5,39.0
53.0,39.0
53.5,39.0
54.0,39.0
54.5,39.0
55.0,39.0
55.5,38.9
56.0,38.9
56.5,38.9
57.0,38.9
57.5,38.9
58.0,38.8
58.5,38.8
59.0,38.8
59.5,38.8
60.0,38.8
60.5,38.7
61.0,38.7
61.5,38.7
62.0,38.7
62.5,38.7
63.0,38.7
63.5,38.6
64.0,38.6
64.5,38.6
65.0,38.6
65.5,38.6
66.0,38.6
66.5,38.6
67.0,38.6
67.5,38.6
68.0,38.6
68.5,38.6
69.0,38.6
69.5,38.6
70.0,38.6
70.5,38.6
71.0,38.6
71.5,38.6
72.0,38.6
72.5,38.5
73.0,38.6
73.5,38.5
74.0,38.5
74.5,38.5
75.0,38.5
75.5,38.5
76.0,38.5
76.5,38.5
77.0,38.5
77.5,38.5
78.0,38.5
78.5,38.5
79.0,38.5
79.5,38.5
80.0,38.5
80.5,38.4
81.0,38.4
81.5,38.4
82.0,38.4
82.5,38.4
83.0,38.4
83.5,38.4
84.0,38.4
84.5,38.4
85.0,38.4
85.5,38.3
86.0,38.3
86.5,38.3
87.0,38.3
87.5,38.3
88.0,38.4
88.5,38.4
89.0,38.4
89.5,38.4
90.0,38.4
90.5,38.3
91.0,38.4
91.5,38.3
92.0,38.3
92.5,38.3
93.0,38.3
93.5,38.4
94.0,38.4
